0 	0 	0 	1.4238419
0.0015000019 	-2.6460832e-08 	-6.6151771e-09 	1.6152974
0.0030000038 	-4.6147499e-08 	-1.1532596e-08 	1.8067546
0.0045000019 	-3.9095837e-08 	-9.7744288e-09 	1.9977776
0.006 	-2.8197548e-08 	-7.0296768e-09 	2.1887954
0.0075 	-1.7414938e-08 	-4.35576e-09 	2.2405331
0.009 	-1.612153e-08 	-3.9838704e-09 	2.292272
0.0105 	-1.4764346e-08 	-3.6933359e-09 	2.3601984
0.012 	-1.2699446e-08 	-3.1311518e-09 	2.4281242
0.0135 	-1.0590107e-08 	-2.6495568e-09 	2.4689261
0.015 	-9.4521095e-09 	-2.3185958e-09 	2.5097282
0.0165 	-8.2583815e-09 	-2.0647126e-09 	2.5455363
0.018 	-7.2963073e-09 	-1.7816392e-09 	2.5813443
0.0195 	-6.2794453e-09 	-1.5693974e-09 	2.607514
0.021 	-5.5781955e-09 	-1.3617098e-09 	2.6336838
0.0225 	-4.8398758e-09 	-1.2189085e-09 	2.6547104
0.024 	-4.3012548e-09 	-1.0639893e-09 	2.675737
0.0255 	-3.7232955e-09 	-9.3861812e-10 	2.6918807
0.027 	-3.3132407e-09 	-8.0514399e-10 	2.7080244
0.0285 	-2.8606488e-09 	-7.1750426e-10 	2.7207478
0.03 	-2.5328029e-09 	-6.2110168e-10 	2.7334713
0.0315 	-2.2027471e-09 	-5.5796763e-10 	2.7433897
0.033 	-1.9700734e-09 	-4.8769382e-10 	2.7533081
0.0345 	-1.7169051e-09 	-4.4066304e-10 	2.761103
0.036 	-1.5380574e-09 	-3.875299e-10 	2.7688979
0.0375 	-1.3184835e-09 	-3.5173441e-10 	2.775011
0.039 	-1.1562099e-09 	-3.1100061e-10 	2.7811241
0.0405 	-1.0074611e-09 	-2.7169229e-10 	2.7859327
0.042 	-9.0273382e-10 	-2.2838953e-10 	2.7907412
0.0435 	-7.8260054e-10 	-1.9635422e-10 	2.7945237
0.045 	-6.9638927e-10 	-1.6113897e-10 	2.7983063
0.0465 	-6.188906e-10 	-1.7870289e-10 	2.8012857
0.048 	-5.6753892e-10 	-1.9374833e-10 	2.8042651
0.0495 	-4.6612864e-10 	-1.5000361e-10 	2.8066128
0.051 	-3.8489749e-10 	-1.0427284e-10 	2.8089606
0.0525 	-3.9566138e-10 	-1.1666907e-10 	2.810812
0.054 	-4.2201762e-10 	-1.2751307e-10 	2.8126634
0.0555 	-3.5946017e-10 	-1.1661794e-10 	2.8141239
0.057 	-3.089484e-10 	-1.0450233e-10 	2.8155844
0.0585 	-2.2992204e-10 	-1.3919979e-11 	2.816737
0.06 	-1.6022223e-10 	7.7608445e-11 	2.8178897
0.0615 	-2.5698288e-10 	-2.0181859e-10 	2.8187996
0.063 	-3.6095543e-10 	-4.8051178e-10 	2.8197095
0.0645 	2.5646122e-10 	1.0542435e-10 	2.820428
0.066 	8.6830539e-10 	6.9195438e-10 	2.8211465
0.0675 	9.5194453e-10 	3.5783804e-10 	2.821714
0.069 	1.0312379e-09 	2.4130475e-11 	2.8222815
0.0705 	4.0925268e-10 	-1.1689459e-09 	2.8227297
0.072 	-2.160705e-10 	-2.3616572e-09 	2.8231779
0.0735 	1.3721509e-10 	-1.2552406e-09 	2.823532
0.075 	4.8791541e-10 	-1.485377e-10 	2.8238861
0.0765 	5.7099235e-10 	1.7003454e-09 	2.8241659
0.078 	6.5204853e-10 	3.5494276e-09 	2.8244457
0.0795 	-2.0292879e-10 	1.5325037e-09 	2.8246668
0.081 	-1.0594609e-09 	-4.8431564e-10 	2.8248879
0.0825 	-1.428399e-09 	-2.550115e-09 	2.8250625
0.084 	-1.7985301e-09 	-4.615738e-09 	2.8252372
0.0855 	7.8678531e-10 	4.0602342e-09 	2.8253752
0.087 	3.3712025e-09 	1.2736418e-08 	2.8255133
0.0885 	3.4022703e-09 	1.0038373e-08 	2.8256224
0.09 	3.4325529e-09 	7.3401172e-09 	2.8257315
0.0915 	-7.2531443e-09 	-2.0408351e-08 	2.8258177
0.093 	-1.7939489e-08 	-4.8156868e-08 	2.8259039
0.0945 	-1.5544186e-08 	-3.8801976e-08 	2.825972
0.096 	-1.3149046e-08 	-2.9446397e-08 	2.8260402
0.0975 	-1.0623532e-09 	1.066436e-08 	2.826094
0.099 	1.1023879e-08 	5.0774969e-08 	2.8261478
0.1005 	1.0711266e-08 	4.7864066e-08 	2.8261904
0.102 	1.0398357e-08 	4.495276e-08 	2.8262329
0.1035 	4.1298306e-09 	1.2189881e-08 	2.8262666
0.105 	-2.1389281e-09 	-2.0572964e-08 	2.8263002
0.1065 	-3.9131834e-09 	-2.7648166e-08 	2.8263268
0.108 	-5.6875028e-09 	-3.4723023e-08 	2.8263534
0.1095 	4.0865504e-11 	-1.2538977e-08 	2.8263744
0.111 	5.7691132e-09 	9.6451282e-09 	2.8263955
0.1125 	5.2975103e-09 	1.7503065e-08 	2.8264121
0.114 	4.8257436e-09 	2.5360778e-08 	2.8264287
0.1155 	1.27783e-09 	1.3013862e-08 	2.8264418
0.117 	-2.2701081e-09 	6.6693483e-10 	2.8264549
0.1185 	-1.9682519e-09 	-6.0581847e-09 	2.8264653
0.12 	-1.666449e-09 	-1.2783212e-08 	2.8264757
0.1215 	-1.0352836e-09 	-8.4890966e-09 	2.8264839
0.123 	-4.0416256e-10 	-4.1949377e-09 	2.8264921
0.1245 	-4.0333875e-10 	-7.6499767e-10 	2.8264985
0.126 	-4.0255167e-10 	2.6648968e-09 	2.826505
0.1275 	6.3506487e-11 	2.6163714e-09 	2.8265101
0.129 	5.295516e-10 	2.5678582e-09 	2.8265153
0.1305 	6.3046961e-10 	2.1784289e-09 	2.8265193
0.132 	7.3135327e-10 	1.7889876e-09 	2.8265234
0.1335 	-1.4148364e-10 	3.5138424e-10 	2.8265266
0.135 	-1.0143312e-09 	-1.0862155e-09 	2.8265298
0.1365 	-5.3436563e-10 	-1.2801971e-09 	2.8265323
0.138 	-5.4399729e-11 	-1.4741673e-09 	2.8265349
0.1395 	3.7508909e-10 	-5.9062352e-10 	2.8265369
0.141 	8.0455907e-10 	2.9292152e-10 	2.8265389
0.1425 	1.5742271e-10 	5.387881e-10 	2.8265404
0.144 	-4.8971848e-10 	7.846489e-10 	2.826542
0.1455 	-6.0781581e-10 	7.0596364e-10 	2.8265432
0.147 	-7.2591457e-10 	6.272814e-10 	2.8265445
0.1485 	-3.4425199e-10 	1.0310568e-09 	2.8265454
0.15 	3.7405487e-11 	1.4348338e-09 	2.8265464
0.1515 	1.9485568e-10 	1.3941875e-09 	2.8265472
0.153 	3.5230139e-10 	1.3535367e-09 	2.826548
0.1545 	-1.7675413e-10 	-3.713989e-10 	2.8265486
0.156 	-7.05815e-10 	-2.0963426e-09 	2.8265493
0.1575 	-4.15302e-10 	-1.7492465e-09 	2.8265497
0.159 	-1.2478047e-10 	-1.4021271e-09 	2.8265502
0.1605 	-1.8677792e-10 	8.8710933e-10 	2.8265506
0.162 	-2.4878722e-10 	3.176337e-09 	2.826551
0.1635 	-1.5030529e-09 	1.801723e-09 	2.8265513
0.165 	-2.757316e-09 	4.2709317e-10 	2.8265516
0.1665 	-2.7048373e-09 	6.4073986e-10 	2.8265519
0.168 	-2.6523552e-09 	8.5441271e-10 	2.8265521
0.1695 	-2.7055365e-09 	3.1939782e-09 	2.8265523
0.171 	-2.7587241e-09 	5.5335323e-09 	2.8265525
0.1725 	-2.9182581e-09 	4.644516e-09 	2.8265526
0.174 	-3.077788e-09 	3.7554918e-09 	2.8265528
0.1755 	-2.3956955e-09 	2.6257184e-09 	2.8265529
0.177 	-1.7136035e-09 	1.4959516e-09 	2.826553
0.1785 	-1.0882834e-09 	8.3632284e-10 	2.8265531
0.18 	-4.6296333e-10 	1.7669111e-10 	2.8265532
0.1815 	-2.4793107e-10 	-9.7969931e-10 	2.8265533
0.183 	-3.2900952e-11 	-2.1360889e-09 	2.8265534
0.1845 	1.2427642e-10 	-2.3019168e-09 	2.8265534
0.186 	2.8145543e-10 	-2.4677412e-09 	2.8265535
0.1875 	4.8347266e-10 	-2.1701445e-09 	2.8265535
0.189 	6.8548877e-10 	-1.8725492e-09 	2.8265536
0.1905 	6.8403542e-10 	-1.6057912e-09 	2.8265536
0.192 	6.8258235e-10 	-1.3390319e-09 	2.8265536
0.1935 	3.9698364e-10 	-7.2545962e-10 	2.8265536
0.195 	1.1138382e-10 	-1.1188738e-10 	2.8265537
0.1965 	8.5208652e-11 	2.685402e-10 	2.8265537
0.198 	5.9034872e-11 	6.4896715e-10 	2.8265537
0.1995 	3.336492e-10 	-2.8541677e-10 	2.8265537
0.201 	6.0826285e-10 	-1.2198034e-09 	2.8265537
0.2025 	6.3471507e-10 	-7.3055823e-10 	2.8265537
0.204 	6.6116723e-10 	-2.413078e-10 	2.8265538
0.2055 	3.422782e-10 	-4.2694696e-10 	2.8265538
0.207 	2.3388789e-11 	-6.125917e-10 	2.8265538
0.2085 	2.9576139e-11 	-5.6016683e-10 	2.8265538
0.21 	3.5764117e-11 	-5.0773724e-10 	2.8265538
0.2115 	-3.0633747e-11 	6.4783964e-10 	2.8265538
0.213 	-9.7031984e-11 	1.8034142e-09 	2.8265538
0.2145 	-5.2618098e-10 	1.2234089e-09 	2.8265538
0.216 	-9.5532997e-10 	6.4340401e-10 	2.8265538
